freq (Hz),leafValue( HF_I "modelFiles" "crn40lp_2d5_v2d0_2_shrink0d9_embedded_usage.scs:top_tt" "VDD" 3.3 "temperature" 27 ) (dB),freq (Hz),leafValue( GD "modelFiles" "crn40lp_2d5_v2d0_2_shrink0d9_embedded_usage.scs:top_tt" "VDD" 3.3 "temperature" 27 ),freq (Hz),leafValue( NF "modelFiles" "crn40lp_2d5_v2d0_2_shrink0d9_embedded_usage.scs:top_tt" "VDD" 3.3 "temperature" 27 ) (dB)
5.000E6,1.823,5.090E6,34.56E-9,9.650E6,38.99
5.090E6,2.069,5.180E6,34.41E-9,9.750E6,38.91
5.180E6,2.316,5.270E6,34.31E-9,9.850E6,38.83
5.270E6,2.565,5.360E6,34.25E-9,9.950E6,38.75
5.360E6,2.816,5.450E6,34.24E-9,10.05E6,38.68
5.450E6,3.069,5.540E6,34.27E-9,10.15E6,38.60
5.540E6,3.325,5.630E6,34.34E-9,10.25E6,38.53
5.630E6,3.582,5.720E6,34.46E-9,10.35E6,38.46
5.720E6,3.842,5.810E6,34.61E-9,10.45E6,38.39
5.810E6,4.103,5.900E6,34.81E-9,10.55E6,38.32
5.900E6,4.368,5.990E6,35.05E-9,10.65E6,38.25
5.990E6,4.634,6.080E6,35.33E-9,10.75E6,38.19
6.080E6,4.903,6.170E6,35.65E-9,10.85E6,38.12
6.170E6,5.174,6.260E6,36.01E-9,10.95E6,38.06
6.260E6,5.447,6.350E6,36.41E-9,11.05E6,38.00
6.350E6,5.723,6.440E6,36.85E-9,11.15E6,37.94
6.440E6,6.002,6.530E6,37.33E-9,11.25E6,37.88
6.530E6,6.283,6.620E6,37.85E-9,11.35E6,37.82
6.620E6,6.566,6.710E6,38.42E-9,11.45E6,37.77
6.710E6,6.852,6.800E6,39.03E-9,11.55E6,37.72
6.800E6,7.140,6.890E6,39.69E-9,11.65E6,37.67
6.890E6,7.431,6.980E6,40.40E-9,11.75E6,37.62
6.980E6,7.725,7.070E6,41.15E-9,11.85E6,37.57
7.070E6,8.020,7.160E6,41.95E-9,11.95E6,37.52
7.160E6,8.319,7.250E6,42.80E-9,12.05E6,37.48
7.250E6,8.619,7.340E6,43.70E-9,12.15E6,37.43
7.340E6,8.922,7.430E6,44.66E-9,12.25E6,37.39
7.430E6,9.227,7.520E6,45.67E-9,12.35E6,37.35
7.520E6,9.535,7.610E6,46.74E-9,12.45E6,37.32
7.610E6,9.844,7.700E6,47.86E-9,12.55E6,37.28
7.700E6,10.16,7.790E6,49.05E-9,12.65E6,37.25
7.790E6,10.47,7.880E6,50.30E-9,12.75E6,37.22
7.880E6,10.78,7.970E6,51.61E-9,12.85E6,37.19
7.970E6,11.10,8.060E6,52.98E-9,12.95E6,37.16
8.060E6,11.42,8.150E6,54.41E-9,13.05E6,37.13
8.150E6,11.74,8.240E6,55.92E-9,13.15E6,37.11
8.240E6,12.06,8.330E6,57.48E-9,13.25E6,37.08
8.330E6,12.38,8.420E6,59.11E-9,13.35E6,37.06
8.420E6,12.70,8.510E6,60.81E-9,13.45E6,37.04
8.510E6,13.02,8.600E6,62.56E-9,13.55E6,37.02
8.600E6,13.35,8.690E6,64.37E-9,13.65E6,37.01
8.690E6,13.67,8.780E6,66.24E-9,13.75E6,37.00
8.780E6,13.99,8.870E6,68.16E-9,13.85E6,36.98
8.870E6,14.30,8.960E6,70.12E-9,13.95E6,36.97
8.960E6,14.62,9.050E6,72.12E-9,14.05E6,36.97
9.050E6,14.93,9.140E6,74.14E-9,14.15E6,36.96
9.140E6,15.24,9.230E6,76.18E-9,14.25E6,36.95
9.230E6,15.54,9.320E6,78.22E-9,14.35E6,36.95
9.320E6,15.84,9.410E6,80.26E-9,14.45E6,36.95
9.410E6,16.14,9.500E6,82.26E-9,14.55E6,36.95
9.500E6,16.42,9.590E6,84.22E-9,14.65E6,36.96
9.590E6,16.70,9.680E6,86.11E-9,14.75E6,36.96
9.680E6,16.98,9.770E6,87.92E-9,14.85E6,36.97
9.770E6,17.24,9.860E6,89.63E-9,14.95E6,36.98
9.860E6,17.49,9.950E6,91.22E-9,15.05E6,36.99
9.950E6,17.74,10.04E6,92.66E-9,15.15E6,37.00
10.04E6,17.97,10.13E6,93.94E-9,15.25E6,37.02
10.13E6,18.19,10.22E6,95.04E-9,15.35E6,37.03
10.22E6,18.40,10.31E6,95.96E-9,15.45E6,37.05
10.31E6,18.59,10.40E6,96.67E-9,15.55E6,37.07
10.40E6,18.77,10.49E6,97.18E-9,15.65E6,37.09
10.49E6,18.94,10.58E6,97.48E-9,15.75E6,37.12
10.58E6,19.10,10.67E6,97.57E-9,15.85E6,37.14
10.67E6,19.25,10.76E6,97.46E-9,15.95E6,37.17
10.76E6,19.38,10.85E6,97.16E-9,16.05E6,37.20
10.85E6,19.50,10.94E6,96.68E-9,16.15E6,37.23
10.94E6,19.61,11.03E6,96.04E-9,16.25E6,37.27
11.03E6,19.70,11.12E6,95.25E-9,16.35E6,37.30
11.12E6,19.79,11.21E6,94.34E-9,16.45E6,37.34
11.21E6,19.86,11.30E6,93.32E-9,16.55E6,37.38
11.30E6,19.93,11.39E6,92.21E-9,16.65E6,37.42
11.39E6,19.98,11.48E6,91.03E-9,16.75E6,37.47
11.48E6,20.03,11.57E6,89.81E-9,16.85E6,37.51
11.57E6,20.08,11.66E6,88.55E-9,16.95E6,37.56
11.66E6,20.11,11.75E6,87.28E-9,17.05E6,37.61
11.75E6,20.14,11.84E6,86.01E-9,17.15E6,37.66
11.84E6,20.17,11.93E6,84.75E-9,17.25E6,37.71
11.93E6,20.19,12.02E6,83.52E-9,17.35E6,37.77
12.02E6,20.20,12.11E6,82.31E-9,17.45E6,37.83
12.11E6,20.22,12.20E6,81.15E-9,17.55E6,37.88
12.20E6,20.23,12.29E6,80.03E-9,17.65E6,37.95
12.29E6,20.23,12.38E6,78.97E-9,17.75E6,38.01
12.38E6,20.24,12.47E6,77.95E-9,17.85E6,38.07
12.47E6,20.24,12.56E6,77.00E-9,17.95E6,38.14
12.56E6,20.25,12.65E6,76.10E-9,18.05E6,38.21
12.65E6,20.25,12.74E6,75.26E-9,18.15E6,38.28
12.74E6,20.25,12.83E6,74.47E-9,18.25E6,38.35
12.83E6,20.25,12.92E6,73.75E-9,18.35E6,38.42
12.92E6,20.25,13.01E6,73.08E-9,18.45E6,38.50
13.01E6,20.25,13.10E6,72.47E-9,18.55E6,38.58
13.10E6,20.25,13.19E6,71.91E-9,18.65E6,38.66
13.19E6,20.25,13.28E6,71.40E-9,18.75E6,38.74
13.28E6,20.25,13.37E6,70.93E-9,18.85E6,38.82
13.37E6,20.25,13.46E6,70.52E-9,18.95E6,38.90
13.46E6,20.25,13.55E6,70.15E-9,19.05E6,38.99
13.55E6,20.25,13.64E6,69.82E-9,19.15E6,39.08
13.64E6,20.25,13.73E6,69.53E-9,19.25E6,39.16
13.73E6,20.25,13.82E6,69.28E-9,19.35E6,39.26
13.82E6,20.25,13.91E6,69.06E-9,19.45E6,39.35
13.91E6,20.25,14.00E6,68.88E-9,19.55E6,39.44
14.00E6,20.25,14.09E6,68.73E-9,19.65E6,39.54
14.09E6,20.25,14.18E6,68.60E-9, , 
14.18E6,20.25,14.27E6,68.51E-9, , 
14.27E6,20.26,14.36E6,68.44E-9, , 
14.36E6,20.26,14.45E6,68.39E-9, , 
14.45E6,20.26,14.54E6,68.37E-9, , 
14.54E6,20.26,14.63E6,68.37E-9, , 
14.63E6,20.26,14.72E6,68.39E-9, , 
14.72E6,20.26,14.81E6,68.44E-9, , 
14.81E6,20.27,14.90E6,68.50E-9, , 
14.90E6,20.27,14.99E6,68.59E-9, , 
14.99E6,20.27,15.08E6,68.69E-9, , 
15.08E6,20.27,15.17E6,68.82E-9, , 
15.17E6,20.27,15.26E6,68.97E-9, , 
15.26E6,20.27,15.35E6,69.14E-9, , 
15.35E6,20.27,15.44E6,69.33E-9, , 
15.44E6,20.27,15.53E6,69.54E-9, , 
15.53E6,20.27,15.62E6,69.78E-9, , 
15.62E6,20.27,15.71E6,70.05E-9, , 
15.71E6,20.27,15.80E6,70.34E-9, , 
15.80E6,20.27,15.89E6,70.66E-9, , 
15.89E6,20.27,15.98E6,71.00E-9, , 
15.98E6,20.27,16.07E6,71.38E-9, , 
16.07E6,20.26,16.16E6,71.79E-9, , 
16.16E6,20.26,16.25E6,72.23E-9, , 
16.25E6,20.26,16.34E6,72.71E-9, , 
16.34E6,20.25,16.43E6,73.22E-9, , 
16.43E6,20.24,16.52E6,73.76E-9, , 
16.52E6,20.24,16.61E6,74.34E-9, , 
16.61E6,20.23,16.70E6,74.96E-9, , 
16.70E6,20.22,16.79E6,75.61E-9, , 
16.79E6,20.20,16.88E6,76.29E-9, , 
16.88E6,20.19,16.97E6,77.00E-9, , 
16.97E6,20.17,17.06E6,77.75E-9, , 
17.06E6,20.16,17.15E6,78.52E-9, , 
17.15E6,20.13,17.24E6,79.32E-9, , 
17.24E6,20.11,17.33E6,80.14E-9, , 
17.33E6,20.08,17.42E6,80.96E-9, , 
17.42E6,20.05,17.51E6,81.80E-9, , 
17.51E6,20.01,17.60E6,82.64E-9, , 
17.60E6,19.97,17.69E6,83.47E-9, , 
17.69E6,19.93,17.78E6,84.28E-9, , 
17.78E6,19.87,17.87E6,85.06E-9, , 
17.87E6,19.82,17.96E6,85.81E-9, , 
17.96E6,19.75,18.05E6,86.50E-9, , 
18.05E6,19.68,18.14E6,87.13E-9, , 
18.14E6,19.60,18.23E6,87.69E-9, , 
18.23E6,19.51,18.32E6,88.16E-9, , 
18.32E6,19.42,18.41E6,88.54E-9, , 
18.41E6,19.31,18.50E6,88.80E-9, , 
18.50E6,19.20,18.59E6,88.95E-9, , 
18.59E6,19.07,18.68E6,88.96E-9, , 
18.68E6,18.94,18.77E6,88.84E-9, , 
18.77E6,18.80,18.86E6,88.59E-9, , 
18.86E6,18.64,18.95E6,88.18E-9, , 
18.95E6,18.48,19.04E6,87.64E-9, , 
19.04E6,18.31,19.13E6,86.95E-9, , 
19.13E6,18.12,19.22E6,86.12E-9, , 
19.22E6,17.93,19.31E6,85.16E-9, , 
19.31E6,17.72,19.40E6,84.07E-9, , 
19.40E6,17.51,19.49E6,82.86E-9, , 
19.49E6,17.29,19.58E6,81.54E-9, , 
19.58E6,17.06,19.67E6,80.13E-9, , 
19.67E6,16.82,19.76E6,78.64E-9, , 
19.76E6,16.58,19.85E6,77.07E-9, , 
19.85E6,16.32,19.94E6,75.44E-9, , 
19.94E6,16.07,20.03E6,73.77E-9, , 
20.03E6,15.80,20.12E6,72.06E-9, , 
20.12E6,15.53,20.21E6,70.33E-9, , 
20.21E6,15.26,20.30E6,68.58E-9, , 
20.30E6,14.98,20.39E6,66.83E-9, , 
20.39E6,14.70,20.48E6,65.08E-9, , 
20.48E6,14.41,20.57E6,63.35E-9, , 
20.57E6,14.12,20.66E6,61.63E-9, , 
20.66E6,13.83,20.75E6,59.94E-9, , 
20.75E6,13.54,20.84E6,58.27E-9, , 
20.84E6,13.25,20.93E6,56.64E-9, , 
20.93E6,12.95,21.02E6,55.05E-9, , 
21.02E6,12.66,21.11E6,53.49E-9, , 
21.11E6,12.36,21.20E6,51.97E-9, , 
21.20E6,12.06,21.29E6,50.50E-9, , 
21.29E6,11.77,21.38E6,49.07E-9, , 
21.38E6,11.47,21.47E6,47.69E-9, , 
21.47E6,11.18,21.56E6,46.34E-9, , 
21.56E6,10.89,21.65E6,45.05E-9, , 
21.65E6,10.59,21.74E6,43.79E-9, , 
21.74E6,10.30,21.83E6,42.58E-9, , 
21.83E6,10.01,21.92E6,41.41E-9, , 
21.92E6,9.725,22.01E6,40.28E-9, , 
22.01E6,9.438,22.10E6,39.19E-9, , 
22.10E6,9.153,22.19E6,38.14E-9, , 
22.19E6,8.870,22.28E6,37.13E-9, , 
22.28E6,8.588,22.37E6,36.15E-9, , 
22.37E6,8.309,22.46E6,35.21E-9, , 
22.46E6,8.031,22.55E6,34.31E-9, , 
22.55E6,7.756,22.64E6,33.44E-9, , 
22.64E6,7.482,22.73E6,32.60E-9, , 
22.73E6,7.211,22.82E6,31.78E-9, , 
22.82E6,6.941,22.91E6,31.00E-9, , 
22.91E6,6.674,23.00E6,30.25E-9, , 
23.00E6,6.409,23.09E6,29.52E-9, , 
23.09E6,6.146,23.18E6,28.82E-9, , 
23.18E6,5.885,23.27E6,28.15E-9, , 
23.27E6,5.626,23.36E6,27.50E-9, , 
23.36E6,5.369,23.45E6,26.87E-9, , 
23.45E6,5.115,23.54E6,26.26E-9, , 
23.54E6,4.862,23.63E6,25.67E-9, , 
23.63E6,4.612,23.72E6,25.11E-9, , 
23.72E6,4.363,23.81E6,24.56E-9, , 
23.81E6,4.117,23.90E6,24.03E-9, , 
23.90E6,3.873,23.99E6,23.52E-9, , 
23.99E6,3.631,24.08E6,23.03E-9, , 
24.08E6,3.391,24.17E6,22.55E-9, , 
24.17E6,3.153,24.26E6,22.09E-9, , 
24.26E6,2.917,24.35E6,21.64E-9, , 
24.35E6,2.683,24.44E6,21.21E-9, , 
24.44E6,2.451,24.53E6,20.79E-9, , 
24.53E6,2.221,24.62E6,20.39E-9, , 
24.62E6,1.993,24.71E6,19.99E-9, , 
24.71E6,1.767,24.80E6,19.61E-9, , 
24.80E6,1.542,24.89E6,19.25E-9, , 
24.89E6,1.320,24.98E6,18.89E-9, , 
24.98E6,1.099,25.07E6,18.54E-9, , 
25.07E6,880.2E-3,25.16E6,18.20E-9, , 
25.16E6,663.0E-3,25.25E6,17.88E-9, , 
25.25E6,447.7E-3,25.34E6,17.56E-9, , 
25.34E6,234.1E-3,25.43E6,17.25E-9, , 
25.43E6,22.21E-3,25.52E6,16.95E-9, , 
25.52E6,-188.0E-3,25.61E6,16.66E-9, , 
25.61E6,-396.5E-3,25.70E6,16.38E-9, , 
25.70E6,-603.3E-3,25.79E6,16.10E-9, , 
25.79E6,-808.5E-3,25.88E6,15.84E-9, , 
25.88E6,-1.012,25.97E6,15.58E-9, , 
25.97E6,-1.214,26.06E6,15.33E-9, , 
26.06E6,-1.414,26.15E6,15.08E-9, , 
26.15E6,-1.613,26.24E6,14.84E-9, , 
26.24E6,-1.811,26.33E6,14.61E-9, , 
26.33E6,-2.006,26.42E6,14.38E-9, , 
26.42E6,-2.201,26.51E6,14.16E-9, , 
26.51E6,-2.394,26.60E6,13.94E-9, , 
26.60E6,-2.585,26.69E6,13.73E-9, , 
26.69E6,-2.775,26.78E6,13.53E-9, , 
26.78E6,-2.964,26.87E6,13.33E-9, , 
26.87E6,-3.151,26.96E6,13.14E-9, , 
26.96E6,-3.336,27.05E6,12.95E-9, , 
27.05E6,-3.521,27.14E6,12.76E-9, , 
27.14E6,-3.704,27.23E6,12.58E-9, , 
27.23E6,-3.886,27.32E6,12.41E-9, , 
27.32E6,-4.066,27.41E6,12.23E-9, , 
27.41E6,-4.245,27.50E6,12.07E-9, , 
27.50E6,-4.423,27.59E6,11.90E-9, , 
27.59E6,-4.599,27.68E6,11.74E-9, , 
27.68E6,-4.775,27.77E6,11.59E-9, , 
27.77E6,-4.949,27.86E6,11.43E-9, , 
27.86E6,-5.122,27.95E6,11.28E-9, , 
27.95E6,-5.293,28.04E6,11.14E-9, , 
28.04E6,-5.464,28.13E6,11.00E-9, , 
28.13E6,-5.633,28.22E6,10.86E-9, , 
28.22E6,-5.801,28.31E6,10.72E-9, , 
28.31E6,-5.968,28.40E6,10.59E-9, , 
28.40E6,-6.134,28.49E6,10.46E-9, , 
28.49E6,-6.299,28.58E6,10.33E-9, , 
28.58E6,-6.462,28.67E6,10.20E-9, , 
28.67E6,-6.625,28.76E6,10.08E-9, , 
28.76E6,-6.786,28.85E6,9.960E-9, , 
28.85E6,-6.947,28.94E6,9.843E-9, , 
28.94E6,-7.106,29.03E6,9.728E-9, , 
29.03E6,-7.265,29.12E6,9.615E-9, , 
29.12E6,-7.422,29.21E6,9.505E-9, , 
29.21E6,-7.578,29.30E6,9.397E-9, , 
29.30E6,-7.734,29.39E6,9.291E-9, , 
29.39E6,-7.888,29.48E6,9.187E-9, , 
29.48E6,-8.041,29.57E6,9.086E-9, , 
29.57E6,-8.194,29.66E6,8.986E-9, , 
29.66E6,-8.345,29.75E6,8.888E-9, , 
29.75E6,-8.495,29.84E6,8.793E-9, , 
29.84E6,-8.645,29.93E6,8.699E-9, , 
29.93E6,-8.794,30.02E6,8.607E-9, , 
30.02E6,-8.941,30.11E6,8.516E-9, , 
30.11E6,-9.088,30.20E6,8.428E-9, , 
30.20E6,-9.234,30.29E6,8.341E-9, , 
30.29E6,-9.379,30.38E6,8.255E-9, , 
30.38E6,-9.523,30.47E6,8.171E-9, , 
30.47E6,-9.666,30.56E6,8.089E-9, , 
30.56E6,-9.809,30.65E6,8.008E-9, , 
30.65E6,-9.950,30.74E6,7.929E-9, , 
30.74E6,-10.09,30.83E6,7.851E-9, , 
30.83E6,-10.23,30.92E6,7.775E-9, , 
30.92E6,-10.37,31.01E6,7.700E-9, , 
31.01E6,-10.51,31.10E6,7.626E-9, , 
31.10E6,-10.65,31.19E6,7.554E-9, , 
31.19E6,-10.78,31.28E6,7.482E-9, , 
31.28E6,-10.92,31.37E6,7.413E-9, , 
31.37E6,-11.05,31.46E6,7.344E-9, , 
31.46E6,-11.19,31.55E6,7.276E-9, , 
31.55E6,-11.32,31.64E6,7.210E-9, , 
31.64E6,-11.45,31.73E6,7.145E-9, , 
31.73E6,-11.59,31.82E6,7.081E-9, , 
31.82E6,-11.72,31.91E6,7.018E-9, , 
31.91E6,-11.85,32.00E6,6.956E-9, , 
32.00E6,-11.98,32.09E6,6.895E-9, , 
32.09E6,-12.11,32.18E6,6.835E-9, , 
32.18E6,-12.24,32.27E6,6.776E-9, , 
32.27E6,-12.36,32.36E6,6.718E-9, , 
32.36E6,-12.49,32.45E6,6.661E-9, , 
32.45E6,-12.62,32.54E6,6.605E-9, , 
32.54E6,-12.74,32.63E6,6.549E-9, , 
32.63E6,-12.87,32.72E6,6.495E-9, , 
32.72E6,-12.99,32.81E6,6.442E-9, , 
32.81E6,-13.12,32.90E6,6.389E-9, , 
32.90E6,-13.24,32.99E6,6.337E-9, , 
32.99E6,-13.36,33.08E6,6.286E-9, , 
33.08E6,-13.48,33.17E6,6.236E-9, , 
33.17E6,-13.60,33.26E6,6.187E-9, , 
33.26E6,-13.73,33.35E6,6.138E-9, , 
33.35E6,-13.85,33.44E6,6.090E-9, , 
33.44E6,-13.96,33.53E6,6.043E-9, , 
33.53E6,-14.08,33.62E6,5.997E-9, , 
33.62E6,-14.20,33.71E6,5.951E-9, , 
33.71E6,-14.32,33.80E6,5.906E-9, , 
33.80E6,-14.44,33.89E6,5.861E-9, , 
33.89E6,-14.55,33.98E6,5.818E-9, , 
33.98E6,-14.67,34.07E6,5.775E-9, , 
34.07E6,-14.78,34.16E6,5.732E-9, , 
34.16E6,-14.90,34.25E6,5.690E-9, , 
34.25E6,-15.01,34.34E6,5.649E-9, , 
34.34E6,-15.12,34.43E6,5.609E-9, , 
34.43E6,-15.24,34.52E6,5.569E-9, , 
34.52E6,-15.35,34.61E6,5.529E-9, , 
34.61E6,-15.46,34.70E6,5.490E-9, , 
34.70E6,-15.57,34.79E6,5.452E-9, , 
34.79E6,-15.68,34.88E6,5.414E-9, , 
34.88E6,-15.79,34.97E6,5.377E-9, , 
34.97E6,-15.90,35.06E6,5.340E-9, , 
35.06E6,-16.01,35.15E6,5.304E-9, , 
35.15E6,-16.12,35.24E6,5.268E-9, , 
35.24E6,-16.23,35.33E6,5.233E-9, , 
35.33E6,-16.34,35.42E6,5.198E-9, , 
35.42E6,-16.44,35.51E6,5.164E-9, , 
35.51E6,-16.55,35.60E6,5.130E-9, , 
35.60E6,-16.66,35.69E6,5.097E-9, , 
35.69E6,-16.76,35.78E6,5.064E-9, , 
35.78E6,-16.87,35.87E6,5.032E-9, , 
35.87E6,-16.97,35.96E6,5.000E-9, , 
35.96E6,-17.08,36.05E6,4.968E-9, , 
36.05E6,-17.18,36.14E6,4.937E-9, , 
36.14E6,-17.28,36.23E6,4.907E-9, , 
36.23E6,-17.38,36.32E6,4.876E-9, , 
36.32E6,-17.49,36.41E6,4.846E-9, , 
36.41E6,-17.59,36.50E6,4.817E-9, , 
36.50E6,-17.69,36.59E6,4.788E-9, , 
36.59E6,-17.79,36.68E6,4.759E-9, , 
36.68E6,-17.89,36.77E6,4.731E-9, , 
36.77E6,-17.99,36.86E6,4.703E-9, , 
36.86E6,-18.09,36.95E6,4.675E-9, , 
36.95E6,-18.19,37.04E6,4.648E-9, , 
37.04E6,-18.29,37.13E6,4.621E-9, , 
37.13E6,-18.39,37.22E6,4.594E-9, , 
37.22E6,-18.48,37.31E6,4.568E-9, , 
37.31E6,-18.58,37.40E6,4.542E-9, , 
37.40E6,-18.68,37.49E6,4.516E-9, , 
37.49E6,-18.77,37.58E6,4.491E-9, , 
37.58E6,-18.87,37.67E6,4.466E-9, , 
37.67E6,-18.97,37.76E6,4.442E-9, , 
37.76E6,-19.06,37.85E6,4.417E-9, , 
37.85E6,-19.16,37.94E6,4.393E-9, , 
37.94E6,-19.25,38.03E6,4.369E-9, , 
38.03E6,-19.34,38.12E6,4.346E-9, , 
38.12E6,-19.44,38.21E6,4.323E-9, , 
38.21E6,-19.53,38.30E6,4.300E-9, , 
38.30E6,-19.62,38.39E6,4.277E-9, , 
38.39E6,-19.72,38.48E6,4.255E-9, , 
38.48E6,-19.81,38.57E6,4.233E-9, , 
38.57E6,-19.90,38.66E6,4.211E-9, , 
38.66E6,-19.99,38.75E6,4.190E-9, , 
38.75E6,-20.08,38.84E6,4.168E-9, , 
38.84E6,-20.17,38.93E6,4.147E-9, , 
38.93E6,-20.26,39.02E6,4.127E-9, , 
39.02E6,-20.35,39.11E6,4.106E-9, , 
39.11E6,-20.44,39.20E6,4.086E-9, , 
39.20E6,-20.53,39.29E6,4.066E-9, , 
39.29E6,-20.62,39.38E6,4.046E-9, , 
39.38E6,-20.71,39.47E6,4.026E-9, , 
39.47E6,-20.80,39.56E6,4.007E-9, , 
39.56E6,-20.88,39.65E6,3.988E-9, , 
39.65E6,-20.97,39.74E6,3.969E-9, , 
39.74E6,-21.06,39.83E6,3.950E-9, , 
39.83E6,-21.14,39.92E6,3.932E-9, , 
39.92E6,-21.23,40.01E6,3.913E-9, , 
40.01E6,-21.32,40.10E6,3.895E-9, , 
40.10E6,-21.40,40.19E6,3.877E-9, , 
40.19E6,-21.49,40.28E6,3.860E-9, , 
40.28E6,-21.57,40.37E6,3.842E-9, , 
40.37E6,-21.66,40.46E6,3.825E-9, , 
40.46E6,-21.74,40.55E6,3.808E-9, , 
40.55E6,-21.83,40.64E6,3.791E-9, , 
40.64E6,-21.91,40.73E6,3.774E-9, , 
40.73E6,-21.99,40.82E6,3.758E-9, , 
40.82E6,-22.07,40.91E6,3.742E-9, , 
40.91E6,-22.16,41.00E6,3.725E-9, , 
41.00E6,-22.24,41.09E6,3.709E-9, , 
41.09E6,-22.32,41.18E6,3.694E-9, , 
41.18E6,-22.40,41.27E6,3.678E-9, , 
41.27E6,-22.48,41.36E6,3.663E-9, , 
41.36E6,-22.57,41.45E6,3.647E-9, , 
41.45E6,-22.65,41.54E6,3.632E-9, , 
41.54E6,-22.73,41.63E6,3.617E-9, , 
41.63E6,-22.81,41.72E6,3.603E-9, , 
41.72E6,-22.89,41.81E6,3.588E-9, , 
41.81E6,-22.97,41.90E6,3.573E-9, , 
41.90E6,-23.05,41.99E6,3.559E-9, , 
41.99E6,-23.12,42.08E6,3.545E-9, , 
42.08E6,-23.20,42.17E6,3.531E-9, , 
42.17E6,-23.28,42.26E6,3.517E-9, , 
42.26E6,-23.36,42.35E6,3.503E-9, , 
42.35E6,-23.44,42.44E6,3.490E-9, , 
42.44E6,-23.51,42.53E6,3.476E-9, , 
42.53E6,-23.59,42.62E6,3.463E-9, , 
42.62E6,-23.67,42.71E6,3.450E-9, , 
42.71E6,-23.75,42.80E6,3.437E-9, , 
42.80E6,-23.82,42.89E6,3.424E-9, , 
42.89E6,-23.90,42.98E6,3.411E-9, , 
42.98E6,-23.97,43.07E6,3.399E-9, , 
43.07E6,-24.05,43.16E6,3.386E-9, , 
43.16E6,-24.12,43.25E6,3.374E-9, , 
43.25E6,-24.20,43.34E6,3.362E-9, , 
43.34E6,-24.27,43.43E6,3.349E-9, , 
43.43E6,-24.35,43.52E6,3.338E-9, , 
43.52E6,-24.42,43.61E6,3.326E-9, , 
43.61E6,-24.50,43.70E6,3.314E-9, , 
43.70E6,-24.57,43.79E6,3.302E-9, , 
43.79E6,-24.64,43.88E6,3.291E-9, , 
43.88E6,-24.72,43.97E6,3.279E-9, , 
43.97E6,-24.79,44.06E6,3.268E-9, , 
44.06E6,-24.86,44.15E6,3.257E-9, , 
44.15E6,-24.93,44.24E6,3.246E-9, , 
44.24E6,-25.01,44.33E6,3.235E-9, , 
44.33E6,-25.08,44.42E6,3.224E-9, , 
44.42E6,-25.15,44.51E6,3.214E-9, , 
44.51E6,-25.22,44.60E6,3.203E-9, , 
44.60E6,-25.29,44.69E6,3.192E-9, , 
44.69E6,-25.36,44.78E6,3.182E-9, , 
44.78E6,-25.43,44.87E6,3.172E-9, , 
44.87E6,-25.50,44.96E6,3.162E-9, , 
44.96E6,-25.57,45.05E6,3.152E-9, , 
45.05E6,-25.64,45.14E6,3.142E-9, , 
45.14E6,-25.71,45.23E6,3.132E-9, , 
45.23E6,-25.78,45.32E6,3.122E-9, , 
45.32E6,-25.85,45.41E6,3.112E-9, , 
45.41E6,-25.92,45.50E6,3.103E-9, , 
45.50E6,-25.99,45.59E6,3.093E-9, , 
45.59E6,-26.06,45.68E6,3.084E-9, , 
45.68E6,-26.13,45.77E6,3.074E-9, , 
45.77E6,-26.20,45.86E6,3.065E-9, , 
45.86E6,-26.26,45.95E6,3.056E-9, , 
45.95E6,-26.33,46.04E6,3.047E-9, , 
46.04E6,-26.40,46.13E6,3.038E-9, , 
46.13E6,-26.46,46.22E6,3.029E-9, , 
46.22E6,-26.53,46.31E6,3.020E-9, , 
46.31E6,-26.60,46.40E6,3.012E-9, , 
46.40E6,-26.66,46.49E6,3.003E-9, , 
46.49E6,-26.73,46.58E6,2.994E-9, , 
46.58E6,-26.80,46.67E6,2.986E-9, , 
46.67E6,-26.86,46.76E6,2.978E-9, , 
46.76E6,-26.93,46.85E6,2.969E-9, , 
46.85E6,-26.99,46.94E6,2.961E-9, , 
46.94E6,-27.06,47.03E6,2.953E-9, , 
47.03E6,-27.12,47.12E6,2.945E-9, , 
47.12E6,-27.19,47.21E6,2.937E-9, , 
47.21E6,-27.25,47.30E6,2.929E-9, , 
47.30E6,-27.32,47.39E6,2.921E-9, , 
47.39E6,-27.38,47.48E6,2.913E-9, , 
47.48E6,-27.45,47.57E6,2.906E-9, , 
47.57E6,-27.51,47.66E6,2.898E-9, , 
47.66E6,-27.57,47.75E6,2.890E-9, , 
47.75E6,-27.64,47.84E6,2.883E-9, , 
47.84E6,-27.70,47.93E6,2.876E-9, , 
47.93E6,-27.76,48.02E6,2.868E-9, , 
48.02E6,-27.83,48.11E6,2.861E-9, , 
48.11E6,-27.89,48.20E6,2.854E-9, , 
48.20E6,-27.95,48.29E6,2.847E-9, , 
48.29E6,-28.01,48.38E6,2.840E-9, , 
48.38E6,-28.07,48.47E6,2.833E-9, , 
48.47E6,-28.14,48.56E6,2.826E-9, , 
48.56E6,-28.20,48.65E6,2.819E-9, , 
48.65E6,-28.26,48.74E6,2.812E-9, , 
48.74E6,-28.32,48.83E6,2.805E-9, , 
48.83E6,-28.38,48.92E6,2.798E-9, , 
48.92E6,-28.44,49.01E6,2.792E-9, , 
49.01E6,-28.50,49.10E6,2.785E-9, , 
49.10E6,-28.56,49.19E6,2.779E-9, , 
49.19E6,-28.62,49.28E6,2.772E-9, , 
49.28E6,-28.68,49.37E6,2.766E-9, , 
49.37E6,-28.74,49.46E6,2.760E-9, , 
49.46E6,-28.80,49.55E6,2.753E-9, , 
49.55E6,-28.86,49.64E6,2.747E-9, , 
49.64E6,-28.92,49.73E6,2.741E-9, , 
49.73E6,-28.98,49.82E6,2.735E-9, , 
49.82E6,-29.04,49.91E6,2.729E-9, , 
49.91E6,-29.10,50.00E6,2.723E-9, , 
50.00E6,-29.16, , , , 
